YEAR,DOY,T2M,RH2M,PRECTOTCORR
2021,1,19.77,80.55,0.3
2021,2,20.56,83.78,0.82
2021,3,21.72,82.89,0.66
2021,4,21.7,81.17,0.27
2021,5,21.67,86.33,1
2021,6,22.17,86.5,12.86
2021,7,21.91,88.14,5.75
2021,8,22.73,85.62,0.86
2021,9,22.75,84.17,0.55
2021,10,22,84.22,0.11
2021,11,21.64,83.64,0.19
2021,12,20.59,85.22,0.8
2021,13,21.33,79.65,0.87
2021,14,21.27,81.64,1.25
2021,15,22.05,77.07,0.17
2021,16,21.98,74.71,0.01
2021,17,21.65,74.93,0
2021,18,20.85,73.33,0
2021,19,20.92,73.29,0
2021,20,21.94,71.33,0
2021,21,23.41,73.92,0.01
2021,22,23.59,73.46,0.07
2021,23,22.85,72.14,0.04
2021,24,22.14,69.62,0
2021,25,20.96,68.31,0
2021,26,20.7,63.25,0
2021,27,20.13,65.17,0
2021,28,20.85,69.47,0
2021,29,21.74,71.08,0
2021,30,22.53,65.58,0
2021,31,22.4,65.1,0.04
2021,32,21.33,62.85,0
2021,33,21.8,65.98,0
2021,34,22.15,69.52,0
2021,35,21.99,63.92,0
2021,36,21.72,63.25,0
2021,37,21.41,61.83,0
2021,38,20.97,53.5,0
2021,39,20.7,59.77,0
2021,40,20.66,61.74,0
2021,41,20.47,56.53,0
2021,42,20.76,58.91,0
2021,43,20.91,59.33,0
2021,44,21.19,59.39,0
2021,45,21.85,56.62,0
2021,46,22.94,56.19,0
2021,47,23.71,58.6,0
2021,48,23.63,57.02,0
2021,49,23.23,60.39,0
2021,50,23.16,62.62,4.23
2021,51,22.94,71.62,3.56
2021,52,22.14,74.26,2.83
2021,53,23.46,63.23,0.61
2021,54,24.51,60.78,0.06
2021,55,24.43,56.69,0
2021,56,25.29,53.59,0
2021,57,25.42,47.84,0
2021,58,25.97,45.33,0
2021,59,25.25,46.37,0
2021,60,24.93,47.13,0
2021,61,25.24,47.96,0
2021,62,24.95,43.8,0
2021,63,23.71,49.23,0
2021,64,24.46,45.87,0
2021,65,26.11,45.21,0
2021,66,26.05,48.05,0
2021,67,25.7,50.17,0
2021,68,26.15,49.13,0
2021,69,26.97,53.58,0.11
2021,70,27.01,53.24,0.75
2021,71,26.12,48.06,0.26
2021,72,25.8,47.15,0
2021,73,26.32,47.62,0
2021,74,26.88,43.54,0
2021,75,27.36,42.99,0
2021,76,27.08,41.91,0
2021,77,26.4,46.43,0
2021,78,25.36,42.88,0
2021,79,26.47,35.73,0
2021,80,27.12,37.22,0
2021,81,27.75,38.74,0
2021,82,27.95,43.52,0
2021,83,28.24,44.68,0
2021,84,28.33,40.25,0.17
2021,85,28.78,41.18,0
2021,86,27.55,48.34,0
2021,87,27.8,46.93,0
2021,88,29.03,41.68,0
2021,89,30.1,37.6,0
2021,90,32.11,30.15,0
2021,91,30.86,28.14,0
2021,92,30.02,28.61,0
2021,93,31.36,32.7,0.01
2021,94,32.06,29.88,0.69
2021,95,31.34,37.73,0.36
2021,96,29.68,43.71,0.01
2021,97,29.75,37.45,0
2021,98,29.06,32.9,0
2021,99,28.78,39.51,0
2021,100,28.9,45.97,0
2021,101,29.01,49.12,0.01
2021,102,28.78,52.7,4.19
2021,103,28.4,52.76,0.75
2021,104,27.49,59.89,6.27
2021,105,25.08,75.62,12.02
2021,106,26.85,63.57,0.63
2021,107,27.62,60.99,0.13
2021,108,27.97,58.73,0.01
2021,109,27.82,61.01,0.78
2021,110,27.59,61.8,2.53
2021,111,27,67.11,5.45
2021,112,28.05,60.02,0.84
2021,113,26.73,66.93,26.49
2021,114,27.06,67.1,5.5
2021,115,27.44,64.54,1.68
2021,116,26.47,67.59,0.15
2021,117,26.75,64.39,0
2021,118,27.63,58.75,0
2021,119,28.18,56.81,0.03
2021,120,27.05,64.56,1.34
2021,121,27.14,67.41,3.03
2021,122,26.96,65.93,0.18
2021,123,27.18,65.61,0.85
2021,124,27.95,63.8,0.15
2021,125,28.24,60.95,0.12
2021,126,28.59,59.39,0.03
2021,127,28.15,61.67,2.57
2021,128,28.12,60.72,0.06
2021,129,28.72,60.07,0.04
2021,130,28.43,63.48,0.14
2021,131,27.64,68.79,0.18
2021,132,27.28,73.18,10.98
2021,133,26.9,75.24,6.83
2021,134,27.77,65.32,2.61
2021,135,25.3,76.38,1.5
2021,136,26.09,74.68,0.34
2021,137,27.53,67.7,0.49
2021,138,27,69.49,0.67
2021,139,25.71,83.08,165.75
2021,140,24.65,82.79,55.07
2021,141,23.99,82.55,10.14
2021,142,24.63,79.59,3.67
2021,143,25.01,78.01,1.21
2021,144,24.96,76.07,0.03
2021,145,23.54,85.31,11.48
2021,146,24.03,76.72,1.36
2021,147,24.83,76.19,0
2021,148,25.41,73.53,0
2021,149,25.18,74.31,1.23
2021,150,24.83,76.35,1.7
2021,151,25.48,75.27,0.08
2021,152,25.83,77.75,3.86
2021,153,25.89,77.13,3.08
2021,154,25.36,81.58,11.81
2021,155,24.19,88.14,11.62
2021,156,22.83,84.21,8.46
2021,157,24.56,73.83,0.1
2021,158,24.25,77.81,0.44
2021,159,25.32,73.72,0.16
2021,160,24.53,79.16,1.52
2021,161,24.87,75.25,0.02
2021,162,23.66,79.71,0
2021,163,23.32,76.92,1.73
2021,164,23.83,71.59,0.54
2021,165,23.18,76.2,0.71
2021,166,23.11,79.17,0.66
2021,167,24.44,76.44,0.98
2021,168,24.37,77.98,0.51
2021,169,23.69,78.74,0.01
2021,170,23.88,80.63,0
2021,171,24.12,79.27,0
2021,172,24.81,76.57,0.05
2021,173,24.92,76.36,0.4
2021,174,24.79,78.3,6.04
2021,175,24.61,76.37,1.02
2021,176,24,75.74,0
2021,177,24.03,76.58,1.14
2021,178,23.07,74.01,0.8
2021,179,23.79,71.86,0.61
2021,180,25.77,72.83,0.53
2021,181,25.95,78.1,1.47
2021,182,24.12,88.58,32.34
2021,183,24.16,84.31,2.29
2021,184,23.94,82.84,5.36
2021,185,24.23,81.65,31.32
2021,186,24.62,79.71,2.17
2021,187,24.74,81.73,0.4
2021,188,24.37,83.1,1.15
2021,189,24.05,83.99,8.63
2021,190,23.98,83.64,8.23
2021,191,22.6,82.36,1.55
2021,192,22.35,80.36,0.01
2021,193,22.66,80.99,0.04
2021,194,23.95,80.08,1.77
2021,195,23.59,82.57,13.04
2021,196,23.01,84.58,7.64
2021,197,24.09,81.86,7.02
2021,198,23.75,84.58,17.73
2021,199,23.21,88.08,10.95
2021,200,23.98,81.62,1.9
2021,201,23.94,79.97,0.47
2021,202,23.79,80.28,0.88
2021,203,23.26,82.16,1.23
2021,204,24.14,78.03,0.48
2021,205,24.47,79.87,2.29
2021,206,23.33,84.03,19.7
2021,207,23.58,82.53,5.49
2021,208,23.73,81.28,0.58
2021,209,24.21,77.66,0.02
2021,210,23.78,80.38,0.01
2021,211,23.55,81.28,0
2021,212,23.99,79.6,0.06
2021,213,24.06,78.63,0.01
2021,214,23.85,76.31,0.01
2021,215,24.13,77.86,0.1
2021,216,24.31,78.36,0.09
2021,217,24.26,78.2,1.78
2021,218,24.73,79.03,6.02
2021,219,24.5,81.88,3.82
2021,220,24.76,79.9,1.26
2021,221,24.7,79.89,6.18
2021,222,23.59,82.71,10.18
2021,223,24.04,81.66,0.86
2021,224,23.14,84.65,0.8
2021,225,23.84,81.7,11.16
2021,226,23.36,82.55,0.91
2021,227,23.25,80.21,0.01
2021,228,23.84,79.04,2.14
2021,229,24.27,77.03,0.58
2021,230,23.41,77.52,2.77
2021,231,22.97,75.34,0.64
2021,232,22.95,78.23,10.13
2021,233,23.14,80.51,5.23
2021,234,23.57,81.82,2.83
2021,235,23.88,82.11,0.95
2021,236,24.85,77.06,2.89
2021,237,24.92,77.09,0.93
2021,238,24.57,81.56,2.91
2021,239,24.06,84.95,17.01
2021,240,23.48,82.57,6.17
2021,241,23.19,79.66,2.02
2021,242,23.07,79.07,0.2
2021,243,24.39,76.24,0.41
2021,244,24.13,78.99,5.55
2021,245,23.01,87.12,26.03
2021,246,23.54,79.49,8.92
2021,247,22.78,85.95,5.17
2021,248,23.44,81.44,7.86
2021,249,22.73,79.6,7.05
2021,250,22.67,81.15,0.41
2021,251,22.88,84.97,3.71
2021,252,23.46,81.53,0.63
2021,253,23.52,82.61,0
2021,254,23.09,84.82,0.69
2021,255,23.72,81.97,0.31
2021,256,23.62,82.61,0.04
2021,257,24.27,81.17,0
2021,258,24.44,81.15,0.3
2021,259,24.28,81.64,0.14
2021,260,24.44,79.05,0.1
2021,261,25.25,74.84,0.11
2021,262,24.02,82.79,14.62
2021,263,24.06,84.47,15.16
2021,264,23.79,83.28,3.01
2021,265,24.14,81.35,4.09
2021,266,24.53,80.92,8.02
2021,267,24.56,81.15,2.43
2021,268,24.08,85.05,8.51
2021,269,22.92,85.98,1.47
2021,270,23.57,81.98,2.41
2021,271,22.62,83.19,2.07
2021,272,22.99,78.85,2.24
2021,273,24.08,76.22,3.26
2021,274,24.45,82.01,1.59
2021,275,23.91,86.05,6.04
2021,276,23.68,84,10.51
2021,277,23.8,84.52,7.02
2021,278,23.73,86.42,17.99
2021,279,23.27,87.09,2.21
2021,280,24.81,81,1.55
2021,281,24.36,86.54,5.35
2021,282,23.55,88.78,4.55
2021,283,23.5,86.56,7.43
2021,284,23.73,85.42,14.28
2021,285,22.96,87.74,10.24
2021,286,22.5,87,3.57
2021,287,23.87,83.3,12.34
2021,288,24.03,86.91,18.1
2021,289,24.03,88.66,10.81
2021,290,22.77,92.24,2.89
2021,291,23.57,88.14,1.33
2021,292,23,86.43,5.61
2021,293,23.56,86.25,6.38
2021,294,23.23,89.67,9.44
2021,295,23.43,88.27,2.39
2021,296,23.12,87.92,5.51
2021,297,23.49,81.64,4.88
2021,298,22.95,86.37,0.92
2021,299,23.26,85.24,1.01
2021,300,22.97,83.87,0.38
2021,301,22.64,83.57,0.17
2021,302,22.07,86.52,2.57
2021,303,22.45,87.86,2.79
2021,304,22.32,89.11,1.33
2021,305,21.96,91.18,3.44
2021,306,21.77,90.24,8.19
2021,307,22.23,88.88,1.8
2021,308,22.52,88.91,22.01
2021,309,22.83,86.73,10.2
2021,310,22.93,86.72,1.88
2021,311,22.42,87.54,6.99
2021,312,21.48,94.13,3.95
2021,313,21.23,90.18,1.35
2021,314,20.72,86.73,3.31
2021,315,19.76,89.84,17.65
2021,316,21.18,91.01,16.87
2021,317,22.98,85.14,6.13
2021,318,22.84,88.68,4.74
2021,319,23.36,88.84,20.03
2021,320,22.62,91.85,4.4
2021,321,22.62,91.62,7.75
2021,322,20.41,91.74,43.21
2021,323,22.51,92.68,17.4
2021,324,22.54,92.3,4.56
2021,325,22.17,81.85,3.23
2021,326,22.13,86.18,1.38
2021,327,22.73,89.47,0.69
2021,328,22.58,86.74,1.46
2021,329,21.56,89.75,2.21
2021,330,21.55,88.52,4.54
2021,331,21.07,90.79,1.43
2021,332,20.72,91.99,3.83
2021,333,20.56,92.24,4.32
2021,334,21.22,90.92,1.48
2021,335,22.13,89.37,0.56
2021,336,22.35,87.19,0.22
2021,337,21.59,85.02,0.28
2021,338,21.75,79.15,0.52
2021,339,23.17,81.4,0.55
2021,340,22.62,87.33,1.15
2021,341,22.37,87.04,0.25
2021,342,21.39,84.03,0.1
2021,343,22.5,86.39,2.58
2021,344,21.17,85.59,0.16
2021,345,21.32,88.41,0.35
2021,346,21.28,88.14,0.76
2021,347,21.35,89,1.44
2021,348,20.67,88.48,0.77
2021,349,20.76,85.2,0.07
2021,350,20.36,84.62,0
2021,351,20.31,82.64,0
2021,352,19.25,80.53,0
2021,353,17.91,79.8,0
2021,354,17.93,82.9,0
2021,355,18.75,77.86,0
2021,356,18.52,80.09,0
2021,357,18.67,77.81,0
2021,358,18.23,74.25,0
2021,359,19.01,78.65,0
2021,360,19.06,82.54,0
2021,361,19.09,82.89,0
2021,362,19.14,83.58,0
2021,363,19.49,83.45,0
2021,364,20.02,85.01,1.03
2021,365,21.27,87.33,2.53
2022,1,21.26,87.29,2.32
2022,2,20.71,84.99,0.26
2022,3,20.1,80.54,0
2022,4,20.33,82.85,0
2022,5,20.37,79.31,0
2022,6,20.33,82.63,0
2022,7,20.79,83.21,0
2022,8,21.32,83.86,0
2022,9,21.28,82.66,0
2022,10,20.57,79.66,0
2022,11,20.94,79.93,0
2022,12,21.54,81.38,0
2022,13,21.99,81.39,0
2022,14,22.48,79.72,0
2022,15,22.94,75.96,0
2022,16,22.15,81.11,0.38
2022,17,21.82,79.83,0.18
2022,18,21.14,78.06,0
2022,19,20.95,74.62,0
2022,20,20.79,67.69,0
2022,21,21.73,65.67,0
2022,22,21.44,67.38,0
2022,23,20.8,70.92,0.01
2022,24,21.07,65.15,0
2022,25,21.66,75.46,0.12
2022,26,22.33,78.78,0.15
2022,27,22,75.32,0.28
2022,28,21.39,75.47,0.27
2022,29,21.88,76.37,0.02
2022,30,23.18,75.19,0
2022,31,23.95,72.5,0
2022,32,23.57,72.62,0
2022,33,22.56,67.82,0
2022,34,22,69.21,0
2022,35,23.08,63.4,0
2022,36,22.91,69,0
2022,37,23.26,72.5,0
2022,38,22.98,70.79,0
2022,39,22.91,67.76,0
2022,40,22.34,66.3,0
2022,41,21.81,58.92,0
2022,42,22.14,61.26,0
2022,43,22.8,64.16,0
2022,44,22.29,63.97,0
2022,45,22.64,64.9,0
2022,46,23.12,65.71,0
2022,47,23.42,62.38,0
2022,48,23.46,60.84,0
2022,49,23.27,62.39,0
2022,50,23.37,61.44,0
2022,51,24.29,58.64,0
2022,52,25.26,61.38,0
2022,53,25.49,57.56,0
2022,54,23.95,59.86,0
2022,55,23.02,56.88,0
2022,56,23.12,52.39,0
2022,57,22.38,58.05,0
2022,58,24.15,60.02,0
2022,59,23.67,53.75,0
2022,60,23.99,51.39,0
2022,61,23.51,42.56,0
2022,62,23.45,44.23,0
2022,63,24.21,39.13,0
2022,64,24.79,49.04,0
2022,65,24.93,53.14,0.01
2022,66,24.03,57.05,0.39
2022,67,25.64,51.41,0.02
2022,68,26.37,47.12,0
2022,69,26.36,41.21,0
2022,70,26,37.14,0
2022,71,26.16,34.64,0
2022,72,25.9,35.95,0
2022,73,27.02,38.78,0
2022,74,27.75,37.64,0
2022,75,27.53,35.48,0
2022,76,28.05,30.61,0
2022,77,28.38,33.34,0
2022,78,29.27,34.78,0.01
2022,79,27.38,56.22,1.05
2022,80,27.75,58.74,8.17
2022,81,27.23,64.62,6.16
2022,82,27.84,59.55,0.94
2022,83,27.82,60.07,0.35
2022,84,27.85,55.92,0.29
2022,85,28.35,55.25,0.23
2022,86,28.98,52.64,0.08
2022,87,29.04,51.29,0
2022,88,29.7,47.44,0.02
2022,89,30.21,43.58,0.14
2022,90,30.46,41.14,0
2022,91,30.08,39.99,0.14
2022,92,29.07,44.14,0.21
2022,93,29.13,45.18,0
2022,94,29.14,47.59,0
2022,95,28.5,46.61,0
2022,96,28.77,44.44,0.12
2022,97,28.54,48.79,2.82
2022,98,28.6,53.6,1.93
2022,99,28.94,52.65,0.29
2022,100,29.19,45.21,0.01
2022,101,28.34,48.79,0.01
2022,102,29.48,47.67,0.13
2022,103,27.83,58.35,3.38
2022,104,25.22,69.39,17.83
2022,105,28.32,58.25,0.18
2022,106,29.15,58.46,2.61
2022,107,27.79,66.86,14.83
2022,108,27.4,65.1,10.11
2022,109,27.33,65.43,1.64
2022,110,28.37,58.47,0.03
2022,111,27.68,62.55,0
2022,112,27.06,65.05,0.07
2022,113,25.98,69.89,5.03
2022,114,28.03,55.5,0.08
2022,115,27.81,57.2,0
2022,116,28.69,51.12,0
2022,117,28.7,55.3,0
2022,118,28.95,55.04,0
2022,119,30.17,50.24,0.1
2022,120,30.05,55.58,0.35
2022,121,30.31,56.77,7.43
2022,122,29.43,62.61,6.38
2022,123,28.3,65.74,5.79
2022,124,28.88,62.58,1.44
2022,125,27.46,66.87,1.71
2022,126,27.77,63.37,4.01
2022,127,28.33,63.83,14.17
2022,128,28.31,64.63,1.77
2022,129,27.99,66.76,4.66
2022,130,27.2,68.11,3.66
2022,131,26.07,71.13,4.91
2022,132,24.56,77.42,4.53
2022,133,25.94,73.18,1.79
2022,134,25.83,74.84,4.74
2022,135,24.17,87.27,26.03
2022,136,25.56,81.81,22
2022,137,25.98,72.43,42.64
2022,138,25.44,79.12,9.36
2022,139,23.56,85.79,1.41
2022,140,22.9,79.21,0.59
2022,141,24.32,75.53,0.86
2022,142,24.86,76.69,0.04
2022,143,26.02,75.71,0
2022,144,26.88,72.98,0.01
2022,145,26.95,71.48,0.63
2022,146,25.63,76.27,0.49
2022,147,25.35,75.37,0.19
2022,148,25.37,74.21,0.06
2022,149,25.08,69.78,0.12
2022,150,25.61,72.8,6.04
2022,151,24.63,78.53,4.33
2022,152,24.52,77,0.14
2022,153,25.73,73.09,0.05
2022,154,25.42,74.37,2.56
2022,155,25.19,75.8,3.91
2022,156,26.06,73.62,5.09
2022,157,24.78,79.19,6.23
2022,158,25.36,75.89,1.29
2022,159,24.98,75.74,0.06
2022,160,25.59,71.57,0.05
2022,161,25.39,72.4,0.09
2022,162,25.26,69.3,0.1
2022,163,24.43,69.73,0.89
2022,164,24.71,73.32,1.28
2022,165,25.12,76.55,8.65
2022,166,23.79,81.83,24.45
2022,167,23.52,83.7,10.96
2022,168,22.79,82.4,34.89
2022,169,22.91,85.8,3.5
2022,170,23.83,84.98,11.84
2022,171,23.84,78.38,4.79
2022,172,23.85,81.28,2.03
2022,173,23.52,82.79,0.52
2022,174,24.05,79.09,0.04
2022,175,23.16,81.56,0.04
2022,176,23.56,78.82,0.35
2022,177,23.76,78.38,0.02
2022,178,24.37,76.16,0
2022,179,24.7,76.46,0.05
2022,180,24.85,78.39,2.31
2022,181,24.19,81.03,3.56
2022,182,23.83,82.75,1.67
2022,183,23.67,82.46,0.59
2022,184,24.18,80.4,0.09
2022,185,23.74,79.09,0.56
2022,186,23.25,81.23,0.85
2022,187,23.44,79.53,0.96
2022,188,23.03,82.02,5.05
2022,189,23.42,78.87,1.56
2022,190,23.32,83.02,3.39
2022,191,23.95,77.94,0.95
2022,192,24.13,77.51,1.78
2022,193,23.78,77,0.7
2022,194,23.86,75.51,1.02
2022,195,23.5,74.44,0.52
2022,196,24.04,75.53,0.17
2022,197,24.32,79.5,14.07
2022,198,24.1,78.69,2.94
2022,199,23.17,80.77,5.3
2022,200,23.74,80.64,0.48
2022,201,25.01,79.14,20.85
2022,202,24.15,83.45,10.76
2022,203,23.29,85.72,14.69
2022,204,23.57,81.2,0.1
2022,205,23.48,81.1,0.03
2022,206,23.99,79.48,1.87
2022,207,23.61,81.15,7.18
2022,208,23.41,85.66,8.63
2022,209,24.47,79.25,1.62
2022,210,24.08,78.46,6.77
2022,211,25.16,74.43,11.82
2022,212,24.46,84.31,12.33
2022,213,24.38,84.17,31.18
2022,214,24.28,83.04,15.03
2022,215,22.66,85.71,23.3
2022,216,22.48,89.69,14.81
2022,217,23.33,83.21,2.94
2022,218,22.99,83.23,2.87
2022,219,22.9,84.76,2.91
2022,220,23.15,83.75,1.34
2022,221,23.26,79.68,0.52
2022,222,22.81,80.28,0.16
2022,223,23.33,81.19,0.36
2022,224,23.55,81.04,0.11
2022,225,22.82,82.24,0
2022,226,23.72,78.33,0
2022,227,24.43,78.32,0
2022,228,25.58,72.9,0
2022,229,24.86,79.35,0.37
2022,230,23.81,84.89,153.05
2022,231,23.95,83.59,29.2
2022,232,23.53,83.91,0.01
2022,233,23.69,84.49,5.24
2022,234,23.71,84.54,2.73
2022,235,23.83,83.38,1.62
2022,236,23.21,85.48,7.54
2022,237,23.07,85.38,18.04
2022,238,22.79,89.28,36.54
2022,239,22.67,89.28,14.81
2022,240,23.22,86.27,17.18
2022,241,23.38,89.83,26.06
2022,242,23.98,87.8,1.4
2022,243,22.88,90.96,4.66
2022,244,23.44,84.41,3.65
2022,245,23.66,85.72,5.8
2022,246,24.91,82.8,5.17
2022,247,23.97,89.67,34.2
2022,248,24.28,86.79,18.75
2022,249,23.59,84.98,21.97
2022,250,22.97,88.5,9
2022,251,22.74,88.74,4.5
2022,252,23.09,88.89,0.39
2022,253,23.03,87.18,1.63
2022,254,22.48,87.95,0.1
2022,255,22.71,86.01,0
2022,256,23.11,87.03,1.51
2022,257,23.4,86.59,3.64
2022,258,22.58,87.45,0.46
2022,259,23.16,86.52,0.01
2022,260,22.96,86.93,0.04
2022,261,23.49,84.74,0.19
2022,262,23.21,86.63,0.02
2022,263,22.32,82.17,0
2022,264,22.89,83.98,0.02
2022,265,22.92,81.8,0
2022,266,21.81,85.69,0
2022,267,23.14,83.74,1.67
2022,268,23.73,81.25,1.99
2022,269,24,84.91,2.21
2022,270,22.28,88.53,1.51
2022,271,23.33,84.33,1.39
2022,272,22.56,86.88,1.06
2022,273,21.93,89.45,7.22
2022,274,22.06,87.55,3.95
2022,275,22.44,85.26,0.5
2022,276,22.74,85.83,0.01
2022,277,22.62,88.63,0.05
2022,278,22.71,88.96,11.53
2022,279,22.81,84.26,0.5
2022,280,22.9,84.72,0.27
2022,281,22,86.21,2.58
2022,282,22.98,87.94,10.38
2022,283,23.77,88.84,25.54
2022,284,23.54,88.98,7.53
2022,285,23.89,86.65,3.25
2022,286,23.92,86.85,15.44
2022,287,24.14,85.15,9.44
2022,288,23.74,87.35,19.26
2022,289,23.84,87.94,20.93
2022,290,23.92,89.19,6.75
2022,291,22.84,90.77,6.7
2022,292,22.93,86.88,17.76
2022,293,23.6,85.55,15.61
2022,294,23.07,87.43,2.12
2022,295,23.04,86.27,1.1
2022,296,22.25,83.85,0.02
2022,297,20.28,77.24,0
2022,298,20.14,71.15,0
2022,299,20.7,70.04,0
2022,300,20.5,76.34,0.02
2022,301,21.89,85.68,0.9
2022,302,22.53,87.59,2.73
2022,303,22.5,86.17,0.3
2022,304,21.37,87.9,0.01
2022,305,21.32,91.26,9.63
2022,306,20.9,88.71,6.59
2022,307,21.13,85.49,6.95
2022,308,21.31,87.08,3.41
2022,309,21.34,84.12,1.32
2022,310,21.34,88.73,0.76
2022,311,21.21,82.77,0.08
2022,312,21.98,87.23,0
2022,313,22.39,83.97,0
2022,314,22.32,83.98,1.92
2022,315,20.71,89.59,13.67
2022,316,21,92.12,15.46
2022,317,21.39,89.64,3.7
2022,318,21.62,88.34,1.06
2022,319,22.01,88.16,0.86
2022,320,21.67,86.26,0
2022,321,19.89,77.97,0
2022,322,18.8,74.11,0
2022,323,18.86,78.76,0
2022,324,18.46,75.85,0
2022,325,18.25,83.45,0.01
2022,326,20.97,87.92,1.73
2022,327,22.08,87.47,7.29
2022,328,22.2,88.38,3.19
2022,329,22.03,86.89,0.81
2022,330,22.14,86.12,0.13
2022,331,22.57,85.19,0.38
2022,332,22.85,85.97,0.49
2022,333,22.24,85.1,0.28
2022,334,19.83,79.66,0.01
2022,335,21.44,88.22,0.89
2022,336,22.44,86.19,0.38
2022,337,22.22,85.99,0.06
2022,338,21.77,87.92,0.15
2022,339,21.32,87.62,0.28
2022,340,21.45,84.79,0
2022,341,19.95,80.78,0
2022,342,18.16,78.37,0.14
2022,343,18.25,84.4,3.53
2022,344,19.69,92.85,26.52
2022,345,21.24,93.61,9.05
2022,346,21.82,91.57,21.9
2022,347,21.81,90.06,9.26
2022,348,21.44,87.45,1.24
2022,349,20.75,80.51,0.04
2022,350,19.79,76.48,0
2022,351,20.43,84.22,0
2022,352,21.18,86.92,0
2022,353,19.02,83.34,0
2022,354,19.87,82.64,0
2022,355,19.36,75.77,0
2022,356,18.66,76.52,0
2022,357,20.12,84.01,0
2022,358,21.31,83.28,0.01
2022,359,21.87,87.56,6.28
2022,360,21.78,88,1.57
2022,361,21.71,88.04,0.86
2022,362,22,86.41,0.1
2022,363,21.42,82.75,0
2022,364,20.13,78.85,0
2022,365,19.67,72.87,0
2023,1,19.08,76.93,0
2023,2,19.1,81.43,0
2023,3,19.5,81.67,0
2023,4,19.82,81.44,0
2023,5,19.42,80.76,0
2023,6,19.46,82.32,0
2023,7,19.97,81.67,0
2023,8,20.25,80.55,0
2023,9,19.06,72.77,0
2023,10,17.4,75.53,0
2023,11,18.01,71.83,0
2023,12,18.68,66.12,0
2023,13,19.06,70.93,0
2023,14,18.67,68.87,0
2023,15,18.61,69.82,0
2023,16,19.07,69.25,0
2023,17,18.76,72.18,0
2023,18,18.87,74.05,0
2023,19,18.92,70.75,0
2023,20,19.07,78.78,0
2023,21,20.22,75.92,0
2023,22,19.78,71.3,0
2023,23,20.93,78.9,0.11
2023,24,21.69,77.11,0.44
2023,25,20.51,72.93,0.05
2023,26,20.04,71.71,0
2023,27,19.74,68.34,0
2023,28,19.3,65.98,0
2023,29,19.97,69.9,0
2023,30,21.75,76.14,0
2023,31,22.17,69.38,0
2023,32,22.4,65.36,0
2023,33,22.05,64.31,0
2023,34,22.82,68.67,0.05
2023,35,23.17,66.18,0.97
2023,36,22.97,60.9,0
2023,37,22.19,64.22,0
2023,38,22.01,63.42,0
2023,39,22.68,63.25,0
2023,40,22.5,62.05,0
2023,41,22.72,61.37,0
2023,42,22.48,57.67,0
2023,43,23.23,52.58,0
2023,44,22.71,50.74,0
2023,45,22.43,54.52,0
2023,46,22.64,52.65,0
2023,47,22.39,55.84,0
2023,48,22.09,58.34,0
2023,49,22.22,59.74,0
2023,50,22.74,59.42,0
2023,51,23.05,54.63,0
2023,52,23.28,52.04,0
2023,53,23.2,52.67,0
2023,54,22.05,53.61,0
2023,55,22.52,49.51,0
2023,56,23.18,43.62,0
2023,57,23.02,46.12,0
2023,58,22.15,51.13,0
2023,59,22.64,54.66,0
2023,60,24.89,59.06,0
2023,61,23.07,47.35,0
2023,62,22.84,46.49,0
2023,63,23.46,41.82,0
2023,64,24.05,39.37,0
2023,65,23.88,40.02,0
2023,66,24.1,41.01,0
2023,67,24.42,45.48,0
2023,68,24.15,46.91,0
2023,69,24.68,45.25,0
2023,70,25.21,47.6,0
2023,71,25.18,50.44,0
2023,72,26.04,50.58,0
2023,73,26.65,42.63,0
2023,74,27.24,45.9,0
2023,75,27.1,55.93,0.2
2023,76,25.49,66.75,10.91
2023,77,25.67,69.28,5.94
2023,78,26.23,64.96,4.69
2023,79,26.3,58.66,1.43
2023,80,26.28,44.07,0.01
2023,81,26.08,45.72,0
2023,82,28.13,47.16,0.66
2023,83,27.47,58.4,2.73
2023,84,26.39,67.99,3.95
2023,85,27,63.07,1.14
2023,86,27.2,60.83,0.58
2023,87,28.71,51.43,0.17
2023,88,28.5,55.01,1.41
2023,89,28.58,52.38,0.66
2023,90,29.11,46.23,0
2023,91,28.54,50.83,0.55
2023,92,28.56,53.65,0.78
2023,93,28.88,49.33,0.46
2023,94,27.24,61.65,5.75
2023,95,27.88,58.49,0.73
2023,96,28.27,50.52,0.09
2023,97,27.86,50.93,0
2023,98,27.6,49.59,0
2023,99,27.91,46.11,0
2023,100,28.27,48.02,0
2023,101,28.37,36.96,0
2023,102,27.89,33.03,0
2023,103,29.4,25.77,0
2023,104,28.69,28.39,0
2023,105,29.48,28.4,0
2023,106,28.68,33.93,0
2023,107,29.06,32.01,0
2023,108,29.39,35.42,0
2023,109,29.81,35.53,0
2023,110,31.24,36.12,0
2023,111,31.72,38.24,0.26
2023,112,30.76,45.71,3.06
2023,113,29.33,54.04,2.45
2023,114,28.3,55.34,0.6
2023,115,28.14,52.98,1.56
2023,116,28.29,54.12,0.04
2023,117,28.94,51.56,0.01
2023,118,29.61,46.94,0.03
2023,119,28.54,57.93,9.3
2023,120,27.52,65.55,3.06
2023,121,25.04,78.08,17.3
2023,122,25.88,73.96,6.14
2023,123,25.76,74.18,1.46
2023,124,25.64,73.07,7.15
2023,125,23.93,81.14,30.33
2023,126,23.86,84.48,6.84
2023,127,24.65,82.81,16.41
2023,128,24.51,83.49,8.79
2023,129,26.48,74.75,0.65
2023,130,27.32,69.06,0.2
2023,131,27.57,68,0.34
2023,132,28.19,67.81,3.51
2023,133,27.87,67.2,0
2023,134,28.12,67,0
2023,135,28.82,65.15,0.25
2023,136,29.64,57.67,0.28
2023,137,30.24,51.06,0.66
2023,138,29.74,57.31,0.09
2023,139,27.62,67.32,0.16
2023,140,28.4,65.33,2.08
2023,141,28.05,70.31,12.26
2023,142,27.95,67.9,3.46
2023,143,27.77,66.12,2.06
2023,144,26.38,71.47,1.22
2023,145,27.48,68.48,2.06
2023,146,27.1,69.34,5.11
2023,147,28.51,63.06,0.41
2023,148,28.07,63.66,0.11
2023,149,28.43,62.64,0.09
2023,150,27.11,70.41,7.64
2023,151,26.66,70.22,8.16
2023,152,26.92,68.9,4.06
2023,153,27.26,64.81,1.3
2023,154,28.7,63.81,0.03
2023,155,28.49,65.28,0.07
2023,156,26.63,72.23,0.03
2023,157,27.44,67.93,1.22
2023,158,27.59,67.12,0.91
2023,159,26.72,70.32,0.34
2023,160,27.11,66.95,4.16
2023,161,26.82,65.44,0.09
2023,162,27.24,64.87,0.02
2023,163,26.82,71.48,12.64
2023,164,27.25,68.6,0.48
2023,165,26.71,69.4,0.87
2023,166,27.89,64.85,0.07
2023,167,28.22,63.08,0.01
2023,168,27.23,67.03,0.02
2023,169,25.7,72.69,0.24
2023,170,25.6,72.02,1.76
2023,171,25.26,75.92,7.63
2023,172,25.09,76.28,13.52
2023,173,26.61,67.93,15.54
2023,174,25.23,69.47,7.92
2023,175,24.14,78.22,0.1
2023,176,24.51,79.21,0.77
2023,177,24.64,68.91,0.1
2023,178,25.1,68.92,0.45
2023,179,25.53,65.62,0.02
2023,180,25.79,68.47,5.72
2023,181,25.7,66.11,0.22
2023,182,25.37,67.5,1.41
2023,183,24.45,75.06,1.3
2023,184,24.63,77.13,3.23
2023,185,24.11,79.5,5.66
2023,186,23.63,77.45,1.23
2023,187,23.89,73.95,0.31
2023,188,24.53,75.81,1.96
2023,189,24.77,73.76,2.28
2023,190,25.35,72.41,1.15
2023,191,24.99,76.07,5.56
2023,192,25.12,69.76,10.65
2023,193,24.52,70.65,7.24
2023,194,24.66,71.79,6.92
2023,195,25.09,72.44,0.21
2023,196,25.21,71.88,0.52
2023,197,25.8,72.78,0.04
2023,198,25.35,74.38,0.01
2023,199,26.1,69.31,0.01
2023,200,25.36,70.69,0.09
2023,201,25.43,68.93,0.01
2023,202,24.94,74.21,0.04
2023,203,25.1,70.23,1.45
2023,204,24.87,73.87,3.23
2023,205,23.65,80.22,7.41
2023,206,22.75,82.82,10.56
2023,207,23.77,78.7,3.11
2023,208,23.62,75.77,0.04
2023,209,25.1,71.02,0.2
2023,210,25.66,70.23,0.05
2023,211,26.16,68.31,0
2023,212,26.37,68.84,0
2023,213,25.97,69.28,0
2023,214,25.64,68.9,0
2023,215,26.16,68.1,0
2023,216,26.14,69.01,0.19
2023,217,26.52,67.03,0
2023,218,26.44,69.2,0.3
2023,219,26.86,65.8,0.32
2023,220,26.51,66.77,0.02
2023,221,26.72,68.29,7.87
2023,222,25.41,76.01,12.06
2023,223,25.71,75.41,5.67
2023,224,25.2,74.55,0.96
2023,225,25.81,69.86,0.09
2023,226,26.12,67.59,0.01
2023,227,25.96,67.8,0.24
2023,228,26.88,66.16,0.17
2023,229,26.93,64.85,0
2023,230,25.97,67.11,0
2023,231,25.94,68.46,2.1
2023,232,26.71,67.12,0.27
2023,233,27.18,64.15,0.11
2023,234,26.79,68.56,0.89
2023,235,26.79,67.08,0.57
2023,236,27,64.07,0.12
2023,237,27.31,63.08,0
2023,238,26.19,69.84,2.76
2023,239,26.05,73.15,8.44
2023,240,26.47,66.76,0.37
2023,241,26.62,67.08,1.4
2023,242,26.93,69.91,9.89
2023,243,25.11,77.37,23.88
2023,244,23.96,87.03,30.08
2023,245,24.08,83.17,10.62
2023,246,23.86,81.17,2.58
2023,247,23.04,78.98,0.38
2023,248,23.88,80.31,10.32
2023,249,23.62,81.11,3.14
2023,250,23.3,78.14,3.81
2023,251,23.89,76.61,0.53
2023,252,24.54,76.85,2.98
2023,253,24.48,79.18,0.66
2023,254,23.99,79.87,1.73
2023,255,24.17,78.04,2.54
2023,256,24.88,73.62,2.91
2023,257,24.82,74.61,1.16
2023,258,23.68,75.84,0.17
2023,259,24.63,77.34,9.07
2023,260,24.91,79.23,15.1
2023,261,24.84,79.36,11.79
2023,262,25.07,78.92,4.54
2023,263,24.04,82.9,11.56
2023,264,22.87,86.82,21.23
2023,265,24.62,83.06,1.34
2023,266,24.36,85.81,1.3
2023,267,23.51,87.62,12.18
2023,268,22.75,87.87,2.05
2023,269,24.26,81.9,4.51
2023,270,24.2,78.06,1.85
2023,271,22.87,85.41,2.48
2023,272,23.29,83.78,0.61
2023,273,23.21,77.99,1.68
2023,274,23.64,81.42,0.35
2023,275,23.94,79.9,1.04
2023,276,24.23,76.07,0
2023,277,24.54,74.33,0.08
2023,278,24.34,80.5,0.19
2023,279,24.4,78.3,0.9
2023,280,24.93,79.12,6.79
2023,281,25.78,72.87,1.96
2023,282,25.09,83.14,10.8
2023,283,24.67,87.27,14.85
2023,284,23.19,91,7.52
2023,285,23.78,80.62,0.25
2023,286,23.39,73.09,0.31
2023,287,23.36,78.23,2.19
2023,288,24.12,79.6,3.7
2023,289,23.65,86.61,17.53
2023,290,23.89,82.45,0.49
2023,291,23.66,80.8,0.57
2023,292,23.79,75.54,0.05
2023,293,24.08,77.83,0.04
2023,294,24.21,77.89,0.03
2023,295,24.8,73.86,0.01
2023,296,24.37,65.55,0
2023,297,23.82,57.52,0
2023,298,24.18,69.53,0
2023,299,24,69.39,0
2023,300,24.22,72.2,0
2023,301,24.45,76.18,0.03
2023,302,23.83,81.67,2.31
2023,303,22.37,87.31,5.17
2023,304,22.78,82.24,1.27
2023,305,24.11,75.75,0.49
2023,306,24.64,78.49,0.2
2023,307,24.92,77.24,1.83
2023,308,23.67,83.73,10.49
2023,309,23.33,84.23,2.57
2023,310,23,83.97,14.29
2023,311,22.99,90.15,19.88
2023,312,23.65,84.74,2.51
2023,313,22.22,84.47,4.6
2023,314,22.54,82.94,1.2
2023,315,22.82,75.29,0
2023,316,21.75,77.47,0
2023,317,22.33,79.09,0.06
2023,318,21.51,77.92,1.01
2023,319,22.81,79.4,0.03
2023,320,23.98,74.06,0
2023,321,24.36,75.13,0
2023,322,24.65,72.92,0
2023,323,24.08,73.33,0
2023,324,23.84,75.57,0
2023,325,24.39,79.52,0.25
2023,326,24.26,84.73,6.95
2023,327,23.48,80.62,2.16
2023,328,23.86,82.27,2.23
2023,329,23.8,81.65,1.47
2023,330,23.35,79.31,1.04
2023,331,23.94,77.16,0.6
2023,332,24.19,77.22,0.45
2023,333,23.67,79.84,2.41
2023,334,23.3,80.49,1.39
2023,335,23.86,77.01,0.33
2023,336,24.13,75.78,2.45
2023,337,24.01,82.16,3.11
2023,338,23.83,77.62,1.91
2023,339,24.67,69.4,0.27
2023,340,24.69,70.37,0.15
2023,341,25.27,74.78,1
2023,342,23.79,85.03,1.14
2023,343,23.13,81.14,0.84
2023,344,24.08,71.5,0.28
2023,345,23.67,71.97,0.13
2023,346,23.33,71.06,0.09
2023,347,22.45,69.44,0
2023,348,21.83,68.46,0
2023,349,22.98,75.95,0.24
2023,350,24.15,77.16,0.65
2023,351,23.01,77.45,0.41
2023,352,22.54,76.88,0.17
2023,353,22.2,70.38,0.03
2023,354,22.59,70.27,0
2023,355,23.28,73.54,0.04
2023,356,23.77,68.96,0
2023,357,20.82,67.39,0
2023,358,21.67,72.63,0
2023,359,23.33,71.98,0.09
2023,360,21.85,66.07,0.01
2023,361,21.79,66.49,0
2023,362,22.66,72.82,0.01
2023,363,23.25,72.19,0.04
2023,364,22.82,67.62,0.06
2023,365,21.82,67.43,0
2024,1,22.61,66.27,0
2024,2,23.01,65.77,0
2024,3,23.02,68.41,0.05
2024,4,22.29,76.7,0.59
2024,5,23.43,73.65,0.39
2024,6,23.83,62.53,0.05
2024,7,22.94,71.03,0.54
2024,8,22.86,77.15,4.06
2024,9,22.13,76.53,0.96
2024,10,22.66,67.26,0.12
2024,11,22.7,63.38,0
2024,12,22.48,69.54,0
2024,13,23.57,67.4,0
2024,14,23.93,63.41,0
2024,15,23.46,62.88,0
2024,16,23,63.74,0
2024,17,23,62.62,0
2024,18,23.13,60.87,0
2024,19,23.89,60.05,0
2024,20,24.98,64.04,0
2024,21,24.81,56.48,0
2024,22,25.11,57.32,0
2024,23,24.58,59.3,0
2024,24,25.15,59.15,0
2024,25,24.88,57.38,0
2024,26,24.12,56.63,0
2024,27,24.23,57.16,0
2024,28,24.24,57.58,0
2024,29,24.05,51.2,0
2024,30,23.99,52.49,0
2024,31,25.28,54.92,0
2024,32,25.92,51.95,0
2024,33,26.5,58.84,0
2024,34,26.7,59.14,0.01
2024,35,25.39,54.22,0
2024,36,25.07,52,0
2024,37,25.08,52.62,0
2024,38,25.3,49.74,0
2024,39,26.01,45.27,0
2024,40,25.44,50.47,0
2024,41,25.35,55.18,0
2024,42,25.06,55.09,0
2024,43,24.25,51.6,0
2024,44,24.38,56.4,0
2024,45,25.8,54.57,0
2024,46,24.87,50.98,0
2024,47,24.62,51.73,0
2024,48,25.14,46.41,0
2024,49,25.5,43.02,0
2024,50,25.82,50.35,0
2024,51,26.83,48.24,0
2024,52,27.81,45.78,0
2024,53,28.72,38.63,0
2024,54,29,39.86,0
2024,55,28.71,47.4,0
2024,56,27.69,52.57,0
2024,57,26.51,53.47,0
2024,58,27.13,52.15,0
2024,59,27.18,44.91,0
2024,60,26.24,40.18,0
2024,61,25.67,46.05,0
2024,62,26.64,35.81,0
2024,63,27.33,37.27,0
2024,64,28.01,42.22,0
2024,65,28.2,40.4,0
2024,66,28.43,33.16,0
2024,67,27.64,33.79,0
2024,68,28.71,34.02,0
2024,69,29.26,36.46,0
2024,70,28.85,42.49,0
2024,71,28.49,44.84,0
2024,72,28.49,42.73,0
2024,73,28.64,35.58,0
2024,74,29.92,35.5,0
2024,75,30.22,33.32,0
2024,76,28.79,39.98,0
2024,77,28.19,41.5,0
2024,78,28.03,35.11,0
2024,79,28.38,34.62,0
2024,80,28.26,39.47,0
2024,81,28.37,49.73,0
2024,82,28.94,49.74,0
2024,83,29.11,45.36,0.02
2024,84,28.96,37.12,0
2024,85,28.65,38.38,0
2024,86,28.77,31.63,0
2024,87,28.22,24.98,0
2024,88,28.69,29.44,0
2024,89,29.63,35.43,0
2024,90,29.47,33.79,0
2024,91,28.49,37.58,0
2024,92,29.83,45.56,0
2024,93,30.74,42.07,0
2024,94,30.25,35.81,0.21
2024,95,30.61,38.91,0
2024,96,31.32,35.04,0
2024,97,30.42,32.27,0
2024,98,30.37,31.02,0
2024,99,30.51,36.28,0
2024,100,29.86,45.85,0
2024,101,29.75,44.44,0
2024,102,30.13,46.11,0.07
2024,103,29.95,49.6,0.89
2024,104,29.52,46.8,0.04
2024,105,29.95,42.93,0
2024,106,30.12,42.03,0
2024,107,30.43,40.75,0
2024,108,31.8,39.66,0
2024,109,32.93,37.08,0
2024,110,33.13,39.42,0
2024,111,33.02,35.87,0
2024,112,32.08,35.81,0
2024,113,31.79,38.81,0
2024,114,31.45,36.02,0
2024,115,30.91,34.32,0
2024,116,31.33,35.78,0
2024,117,31.23,38.2,0
2024,118,30.88,36.64,0
2024,119,31.41,34.95,0
2024,120,31.64,35.29,0
2024,121,31.77,34.84,0
2024,122,33.01,40.75,0
2024,123,33.15,43.23,0.35
2024,124,32.43,47.99,2.47
2024,125,30.21,60.64,8.87
2024,126,31.27,53.7,0.85
2024,127,31.38,53.55,7.39
2024,128,29.78,61.01,10.33
2024,129,28.44,67.25,7.64
2024,130,28.48,65.51,2.45
2024,131,27.39,67.97,0.24
2024,132,27.67,67.54,7.16
2024,133,27.66,69.6,7.43
2024,134,26.79,74.19,9.55
2024,135,27.38,67.91,1.05
2024,136,28.6,59.9,1.08
2024,137,26.6,68.64,4.74
2024,138,27.56,64.34,5.2
2024,139,27,72.4,13.93
2024,140,25.06,83.75,5.53
2024,141,24.94,77.13,9.78
2024,142,25.42,79.15,21.9
2024,143,27.17,72.03,8.84
2024,144,27.49,72.99,1.15
2024,145,27.27,72.2,0.73
2024,146,24.25,79.21,0.82
2024,147,25.74,74.79,0
2024,148,26.4,72.55,0
2024,149,26.93,70.83,0
2024,150,26.67,72.63,0.06
2024,151,27.07,75.8,5.48
2024,152,27.89,72.99,0.51
2024,153,27.02,79.24,4.86
2024,154,25.89,75.45,32.57
2024,155,25.95,78.17,4.04
2024,156,26.39,79.3,7.63
2024,157,25.69,83.43,13.23
2024,158,25.3,80.4,6.57
2024,159,25.06,80.06,13.74
2024,160,25.35,77.35,1.05
2024,161,24.67,77.41,0.22
2024,162,24.57,75.71,3.78
2024,163,24.11,72.38,1.62
2024,164,23.98,75.34,0.16
2024,165,24.43,70.15,1.37
2024,166,24.34,70.77,1.62
2024,167,25.27,75.32,0
2024,168,25.86,70.59,1.34
2024,169,25.66,70.2,3.38
2024,170,25.69,71.35,5.71
2024,171,24.53,76.33,15.51
2024,172,24.55,77.24,1.34
2024,173,23.8,78.94,3.66
2024,174,24.2,78.36,0.84
2024,175,23.74,79.88,2.09
2024,176,23.7,78.41,0.06
2024,177,23.42,75.52,4.98
2024,178,23.48,72.87,0.41
2024,179,22.49,76.31,0.03
2024,180,23.66,73.32,0.01
2024,181,25.08,75.42,1.88
2024,182,24.73,75.23,0.36
2024,183,23.25,80.86,2.28
2024,184,25.01,68.81,0.05
2024,185,24.95,76.61,0.78
2024,186,25.33,73.77,4.18
2024,187,23.99,77.11,6.17
2024,188,23.62,81,0.74
2024,189,24.5,75.17,1.02
2024,190,24.32,77.38,4.37
2024,191,23.7,80.9,0.53
2024,192,24.48,77.65,1.54
2024,193,25.02,73.08,0
2024,194,24.61,75,9.11
2024,195,23.48,77.45,0.64
2024,196,24.04,77.03,2.04
2024,197,24.39,80.73,3.76
2024,198,23.77,82.42,0.81
2024,199,23.71,80.34,2.06
2024,200,23.31,81.34,5.36
2024,201,23.82,81.3,3.81
2024,202,24.19,79.53,4.24
2024,203,24.17,79.5,2.57
2024,204,24.28,75.02,0.9
2024,205,24.15,73.89,0.74
2024,206,23.85,76.68,0.41
2024,207,24.1,74.88,2.15
2024,208,24.2,75.66,0.96
2024,209,24.37,74.65,0.05
2024,210,24.53,74.37,0
2024,211,25.4,75.51,1.12
2024,212,24.05,81.61,1.61
2024,213,24.85,80.01,7.81
2024,214,25.19,78.17,2.72
2024,215,24.5,76.07,0.77
2024,216,23.98,78.32,0.91
2024,217,23.5,81.25,2.68
2024,218,25.01,76.38,7.69
2024,219,23.53,85.7,18.59
2024,220,23.78,84.39,3.88
2024,221,24.69,78.58,2.77
2024,222,25.08,79.65,9.65
2024,223,24.87,82.26,19.06
2024,224,24.65,83.94,15.88
2024,225,24.22,88.65,43.44
2024,226,25.43,82.01,9.28
2024,227,25.53,81.92,0.24
2024,228,25.43,80.42,9.72
2024,229,25.45,82.77,5.21
2024,230,25.13,87.23,3.04
2024,231,25.05,80.86,4.34
2024,232,24.92,84.25,1.96
2024,233,25.14,81.67,11.77
2024,234,24.71,83.79,1.02
2024,235,24.01,85.06,0
2024,236,24.43,81.23,0
2024,237,23.92,80.33,0.54
2024,238,23.85,82.34,0.54
2024,239,24.24,79.68,0.06
2024,240,23.67,84.06,2.29
2024,241,23.22,82.98,0.27
2024,242,23.79,84.16,10.4
2024,243,23.4,87.69,8.58
2024,244,23.44,83.08,7.48
2024,245,23.61,80.07,1.92
2024,246,23.77,78.49,1.47
2024,247,24.3,81.34,3.03
2024,248,23.9,84.32,0.98
2024,249,24.05,84.29,0.36
2024,250,24.34,82.75,0.87
2024,251,23.77,84.49,0.14
2024,252,24.19,81.58,0.11
2024,253,24.62,80.29,0.15
2024,254,24.56,80.5,0.32
2024,255,24.65,78.18,0.03
2024,256,23.95,80.33,0
2024,257,24.79,75.79,0
2024,258,25,74.58,0
2024,259,24.93,74.46,0
2024,260,24.52,75.72,0
2024,261,24.96,74.63,0
2024,262,24.55,71.67,0
2024,263,25.08,71.89,0.03
2024,264,24.4,78.45,0.8
2024,265,25.48,74.53,0.28
2024,266,25.18,75.57,3.85
2024,267,25.03,77.08,0.28
2024,268,24.81,79.19,3.11
2024,269,24.92,77.59,0.08
2024,270,23.93,77.92,0.05
2024,271,24.7,75.33,0.83
2024,272,25.13,78.79,8.03
2024,273,25.37,76.82,7.64
2024,274,24.87,76.06,0.09
2024,275,25.7,72.22,0.33
2024,276,26.36,74.13,9.99
2024,277,25.24,84.54,7.57
2024,278,24.3,86.91,22.09
2024,279,24.05,86.32,15.18
2024,280,22.17,89.86,14.44
2024,281,23.11,81.92,1.31
2024,282,23.85,85.62,12.49
2024,283,23.94,86.41,5.82
2024,284,23.98,85.71,2.01
2024,285,23.71,86.98,3.39
2024,286,23.33,89.11,6.14
2024,287,23.34,89.14,6.89
2024,288,23.28,86.63,8.95
2024,289,22.62,90.76,18.51
2024,290,22.52,92.19,14.31
2024,291,23.94,87.6,0.6
2024,292,23.15,80.97,15.75
2024,293,23,88.72,14.02
2024,294,23.72,85.39,10.15
2024,295,24.08,86.74,11.84
2024,296,24.15,84.69,7.72
2024,297,24.45,82.15,18.7
2024,298,23.49,87.37,9.36
2024,299,23.21,82.92,2.94
2024,300,23.1,79.42,0.26
2024,301,23.02,83.03,0.04
2024,302,23.52,82.39,0.04
2024,303,24.53,79.04,0
2024,304,24.57,81.45,1.07
2024,305,23.74,88.12,3.54
2024,306,23.85,86.79,0.63
2024,307,23.73,85.18,2.65
2024,308,23.26,85.62,1.39
2024,309,23.16,85,1.15
2024,310,22.6,82.28,1.73
2024,311,22.88,80.24,0
2024,312,23.65,85.31,0.16
2024,313,23.3,83.91,0.01
2024,314,22.52,84.36,0
2024,315,22.01,81.22,0
2024,316,21.93,79.83,0
2024,317,22.36,84.06,1.5
2024,318,23.15,87.3,0.82
2024,319,23.12,87.07,5.49
2024,320,22.79,89.46,6.3
2024,321,22.74,88.51,6.07
2024,322,22.81,85.16,0.4
2024,323,22.57,84.51,0.07
2024,324,22.52,82.88,0.06
2024,325,21.66,82.15,0
2024,326,21.67,79.12,0
2024,327,21.91,81.8,0
2024,328,21.57,79.41,0
2024,329,22.21,80.88,0
2024,330,21.13,80.11,0
2024,331,21.05,88.53,1.93
2024,332,22.14,82.63,0.08
2024,333,21.85,74.2,0
2024,334,21.62,84.72,0.09
2024,335,22.74,86.88,25.97
2024,336,22.21,91.9,22.63
2024,337,21.98,95.43,62.04
2024,338,23.19,91.85,13.59
2024,339,23.19,87.68,1.99
2024,340,22.67,88.63,0.4
2024,341,22.53,84.62,0.34
2024,342,22.74,86.79,0.2
2024,343,22.34,84.94,0.05
2024,344,22.52,85.55,0
2024,345,22.69,84.7,0.01
2024,346,22.52,84.93,0.3
2024,347,21.54,92.17,17.55
2024,348,21.48,90.01,1.53
2024,349,21.35,84.2,0.21
2024,350,19.24,83.39,0
2024,351,18.58,78.37,0
2024,352,20.97,80.5,0.15
2024,353,22.22,83.46,0.14
2024,354,23.61,83.47,0.06
2024,355,23.98,81.32,0.01
2024,356,24.27,80.13,1.09
2024,357,23.29,81.57,1.72
2024,358,22,83.42,0
2024,359,22.19,77.08,0
2024,360,22.46,81.19,0.21
2024,361,22.78,85.21,5.28
2024,362,22.16,86.07,2.99
2024,363,21.22,81.62,0.18
2024,364,21.17,81.24,0
2024,365,21.54,79.51,0.02
2024,366,21.22,80.43,0
2025,1,20.26,78.5,0
2025,2,20.24,78.75,0
2025,3,20,79.3,0
2025,4,18.81,77.28,0
2025,5,18.92,75.47,0
2025,6,19.16,74.4,0
2025,7,19.69,76.61,0
2025,8,19.59,73.32,0
2025,9,19.8,77.17,0
2025,10,20.78,79.92,0
2025,11,22.16,77.14,0
2025,12,22.17,75.38,0
2025,13,22.41,84.36,2.13
2025,14,22.45,76.76,0.33
2025,15,21.46,72.69,0.02
2025,16,21.04,76.02,0
2025,17,21.15,76.19,0
2025,18,21.41,75.61,0.92
2025,19,21.71,84.42,3.69
2025,20,22.14,68.81,0.04
2025,21,21.13,66.92,0
2025,22,21.4,71.45,0
2025,23,21.94,71.37,0
2025,24,20.72,69.91,0
2025,25,20.71,67.05,0
2025,26,19.92,62.03,0
2025,27,20.84,64.53,0
2025,28,20.93,65.32,0
2025,29,21.22,63.65,0
2025,30,21.66,63.87,0
2025,31,24.11,72.34,0
2025,32,24.27,68.3,0
2025,33,23.52,62.31,0
2025,34,22.15,57.07,0
2025,35,22.18,53.69,0
2025,36,22.09,58,0
2025,37,21.62,62.17,0
2025,38,21.92,58.87,0
2025,39,22.52,61.33,0
2025,40,22.67,62.87,0
2025,41,22.32,63.79,0
2025,42,22.46,58.85,0
2025,43,22.96,55.25,0
2025,44,23.29,49.42,0
2025,45,23.53,46.35,0
2025,46,24.22,50.51,0
2025,47,23.71,56.94,0
2025,48,23.96,58.11,0
2025,49,24.11,54.86,0
2025,50,24.66,52.04,0
2025,51,25.11,54.3,0
2025,52,25.04,55.15,0
2025,53,25.27,53.14,0
2025,54,25.28,46.72,0
2025,55,24.46,47.53,0
2025,56,24.64,55.01,0
2025,57,25.22,51.65,0
2025,58,24.54,49.46,0
2025,59,25.01,47.97,0
2025,60,26.42,55.18,0.07
2025,61,27.25,51.15,0.03
2025,62,26.73,48.94,0
2025,63,27.25,38.81,0
2025,64,27.37,35.5,0
2025,65,27.84,33.73,0
2025,66,26.85,32.99,0
2025,67,26.67,39.75,0
2025,68,26.42,39.82,0
2025,69,25.3,48.83,0
2025,70,25.06,63.95,3.64
2025,71,26.54,64.84,1
2025,72,27.48,52.08,0.11
2025,73,27.81,43.54,0
2025,74,26.46,45.15,0
2025,75,27.17,49.92,0
2025,76,28.73,52.53,0.13
2025,77,28.86,50.44,0
2025,78,28.65,50.83,0.04
2025,79,28.3,51.16,0.08
2025,80,28.72,52.99,0
2025,81,27.91,58.08,1.57
2025,82,27.61,60.34,1.56
2025,83,28.87,50.98,0.01
2025,84,28.38,42.52,0.11
2025,85,28.76,34.27,0
2025,86,29.66,37.02,0.01
2025,87,29.86,34.91,0
2025,88,29.12,27.62,0
2025,89,28.63,29.09,0
2025,90,28.61,34.35,0
2025,91,27.73,45.7,0
2025,92,28.12,48.52,0.11
2025,93,27.35,56.55,6.98
2025,94,28.79,48.14,1.02
2025,95,26.23,62.19,6.39
2025,96,28.12,54.51,0.89
2025,97,28.71,52.51,0.08
2025,98,28.6,47.26,0
2025,99,28.58,44.87,0
2025,100,28.06,48.43,0.08
2025,101,28.82,53.85,3.13
2025,102,28.44,59.1,5.63
2025,103,28.52,56.43,2.16
2025,104,27.88,59.17,4.15
2025,105,28.06,55.78,0.25
2025,106,28.12,60.16,6.03
2025,107,28.85,57.92,0.55
2025,108,28.59,60.16,0.19
2025,109,29.62,55.6,0.05
2025,110,30.14,49.6,0.13
2025,111,28.38,51.43,0.02
2025,112,29.71,39.18,0
2025,113,29.83,39.31,0.32
2025,114,30.59,47.87,0.08
2025,115,30.54,44.97,0.09
2025,116,29.66,48.46,0
2025,117,29.75,51.15,0.01
2025,118,29,52.88,0.01
2025,119,30.57,46.4,0
2025,120,29.97,49.88,0.31
2025,121,28.97,57.79,6.49
2025,122,28.54,60.65,5.7
2025,123,27.92,62.11,1.44
2025,124,28.2,56.03,0.16
2025,125,28.47,54.78,1.33
2025,126,28.75,57.52,0.73
2025,127,28.37,56.89,1.96
2025,128,27.33,63.87,5.77
2025,129,28.27,59.49,1.2
2025,130,28.38,59.92,0.91
2025,131,29.25,54.84,0.06
2025,132,26.45,68.79,3.59
2025,133,27.45,68.62,13.87
2025,134,27.88,67.14,2.89
2025,135,25.81,76.49,7.09
2025,136,26.37,74.03,19.28
2025,137,26.81,69.34,10.47
2025,138,25.08,83.75,55.69
2025,139,24.86,81.94,11.79
2025,140,25.19,83.68,35.71
2025,141,24.56,80.5,0.74
2025,142,24.73,77.1,0
2025,143,25.68,78.1,0.94
2025,144,25.18,78.95,0.87
2025,145,24.64,81.01,8.97
2025,146,23.83,80.19,4.25
2025,147,25.22,76.59,0.97
2025,148,25.01,76.84,1.2
2025,149,24.35,77.14,0.71
2025,150,23.68,81.06,3.15
2025,151,24.72,74.53,0
2025,152,24.8,73.88,0
2025,153,24.95,75.54,0.13
2025,154,25.19,72.64,0.52
2025,155,25.2,71.17,1.06
2025,156,25.25,67.38,0.05
2025,157,26.25,66.95,0.04
2025,158,26.73,70.88,0.01
2025,159,25.99,75.19,5.6
2025,160,25.73,75.73,4.46
2025,161,25.62,78.83,10.63
2025,162,25.29,81.57,5.17
2025,163,24.42,82.1,3.54
2025,164,24.92,81.43,10.08
2025,165,24.34,83.14,8.31
2025,166,23.24,78.98,0.14
2025,167,23.53,74.8,0.06
2025,168,24.59,76.24,0.52
2025,169,25.28,76.02,1.62
2025,170,25.22,77.96,0.34
2025,171,25.69,74.92,0.74
2025,172,25.56,75.5,0.21
2025,173,25.21,75.97,1.76
2025,174,24.83,72.32,0.11
2025,175,23.51,72.2,0
2025,176,24.35,73.62,0.51
2025,177,24.96,70.33,0.09
2025,178,24.7,74.15,0.1
2025,179,25.46,74.09,0.48
2025,180,25.72,72.22,0.02
2025,181,24.71,75.1,0
2025,182,24.79,76.3,0.01
2025,183,24.68,73.73,1.19
2025,184,24.28,72.46,3.09
2025,185,24.2,74.84,0.01
2025,186,25.15,72.04,0.01
2025,187,25.32,73.45,0.08
2025,188,25.49,72.71,0.06
2025,189,25.89,70.73,0
2025,190,25.92,70.68,0
2025,191,25.65,73.04,1.42
2025,192,26.06,73.23,1.09
2025,193,25.39,74.48,0.17
2025,194,25.03,76.52,6.14
2025,195,24.86,74,1.05
2025,196,25.27,72.98,0
2025,197,25.22,77.39,7.67
2025,198,24.55,80.08,7.21
2025,199,25,76.07,0.77
2025,200,23.95,79.66,5.81
2025,201,24.07,78.1,4.72
2025,202,22.75,77.55,4.24
2025,203,23.76,71.49,1.02
2025,204,24.35,76.14,0.33
2025,205,24.06,74.41,0.39
2025,206,24.28,70.78,0.43
2025,207,23.94,73.81,0.37
2025,208,24.25,71.03,0.02
2025,209,24.86,69.57,0.01
2025,210,24.95,69.91,0.08
2025,211,25.63,69.4,0.07
2025,212,26.21,70.2,1.12
2025,213,26.15,70.09,0.11
2025,214,26.39,69.43,0.69
2025,215,25.04,78.56,15.54
2025,216,24.5,80.6,8.74
2025,217,25.26,79.38,13.81
2025,218,23.84,82.93,6.21
2025,219,24.05,83.99,1.06
2025,220,24.11,82.97,12.62
2025,221,24.74,79.9,2.49
2025,222,24.08,80.37,18.04
2025,223,23.13,79.92,0.65
2025,224,22.95,78.35,2.19
2025,225,22.69,79.82,4.14
2025,226,23.32,78.39,0.7
2025,227,23.69,78,3.74
2025,228,23.4,81.8,1.86
2025,229,23.68,81.73,6.33
2025,230,22.87,80.65,1.11
2025,231,23.76,75.58,0.39
2025,232,23.95,74.77,0.04
2025,233,24.45,77.7,1.82
2025,234,23.03,85.81,3.61
2025,235,24.45,79.76,9.71
2025,236,25.12,73.67,0.02
2025,237,24.17,75.5,0
2025,238,24.93,73.24,0.02
2025,239,24.54,77.77,5.55
2025,240,24.4,74.94,0.73
2025,241,23.62,75.19,5.72
2025,242,24.64,77.51,0.29
2025,243,24.66,79.67,4.58
2025,244,24.08,80.88,6.48
2025,245,24.3,78.89,2.18
2025,246,24.46,79.53,5.3
2025,247,24.74,77.46,0.26
2025,248,24.51,78.23,0.05
2025,249,25.27,76.37,11.68
2025,250,25.09,77.53,2.42
2025,251,25.12,74.15,0.68
2025,252,25.4,78.24,1.29
2025,253,23.82,85,18.79
2025,254,23.65,82.38,5.05
2025,255,24.24,78.06,0.1
2025,256,23.7,84.54,0.04
2025,257,24.33,78.41,0
2025,258,24.48,79.36,1.56
2025,259,24.67,80.54,3.99
2025,260,23.43,89.41,12.2
2025,261,24.32,83.12,19.79
2025,262,23.2,86.55,42.82
2025,263,22.82,87.07,2.12
2025,264,23.97,84.49,1.61
2025,265,23.74,84.84,0.91
2025,266,23.53,83.22,0.09
2025,267,23.66,81.24,1.22
2025,268,23.59,81.28,3.54
2025,269,23.63,79.39,0.04
2025,270,22.91,81.17,0.99
2025,271,23.69,80.68,1.08
2025,272,24.12,77.73,0
2025,273,23.63,79.76,0
2025,274,24.47,77.2,0
2025,275,24.83,78.45,1.29
2025,276,23.57,85.69,24.8
2025,277,24.37,80.59,9.57
2025,278,24.42,80.38,10.88
2025,279,23.59,83.23,0.43
2025,280,23.55,80.49,0.07
2025,281,24.1,80.63,1.51
2025,282,24.21,81.77,6.96
2025,283,24.28,84.5,11.65
2025,284,23.65,87.2,7.87
2025,285,23.9,86.94,2.03
2025,286,24.01,85.64,1.72
2025,287,24.01,84.38,1.38
2025,288,23.69,85.28,3.07
2025,289,23.6,86.83,5.68
2025,290,23.64,86.36,2.01
2025,291,23.44,86.27,4.91
2025,292,23.46,84.29,1.58
2025,293,23.07,86.43,1.43
2025,294,22.58,87.98,13.3
2025,295,22.26,91.89,19.69
2025,296,23.64,84.14,4.29
2025,297,22.93,84.03,0.35
2025,298,23.65,78.01,0.16
2025,299,23.74,83.27,0.27
2025,300,22.71,88.15,1.78
2025,301,22.58,83.97,0.56
2025,302,22.73,82.56,0.14
2025,303,23.24,82.61,0.02
2025,304,23.71,78.61,0
2025,305,24.12,75,0
2025,306,23.85,78.2,0
2025,307,24.01,78.71,0
2025,308,23.52,75.52,0.05
2025,309,23.79,82.91,3.59
2025,310,21.42,88.65,12.6
2025,311,22.56,81.14,3.13
2025,312,22.23,79.82,0.01
2025,313,20.16,68.23,0
2025,314,21.52,77.72,0
2025,315,23.01,79.43,0.14
2025,316,23.22,78.6,0.05
2025,317,23.43,80.72,0.06
2025,318,22.61,76.86,0.17
2025,319,20.97,72.87,0
2025,320,22.09,78.46,0
2025,321,22.13,75.83,0.05
2025,322,20.55,85.65,4.58
2025,323,22.41,80.14,0.8
2025,324,22.14,73,0
2025,325,22.98,82.28,1.93
2025,326,22.69,84.68,2.71
2025,327,22.31,85.24,1.07
2025,328,22.68,81.06,0.32
2025,329,21.72,78.51,0.02
2025,330,21.43,75.28,0
2025,331,21.33,75.01,0
2025,332,20.34,75.2,0
2025,333,20.14,83.21,1.9
2025,334,20.43,90.38,2.18
2025,335,21.09,90.35,2.07
2025,336,21.28,91.09,10.93
2025,337,21.29,92.93,14.44
2025,338,21.9,91.07,9.51
2025,339,21.26,90.51,2.39
2025,340,20.92,86.11,0.21
2025,341,20.74,87.49,0.26
2025,342,19.37,82.48,0.06
2025,343,19.27,89.11,1.07
2025,344,19.44,81.81,0
2025,345,18.64,82.58,0.02
2025,346,18.45,82.75,0.05
2025,347,18.2,75.36,0
2025,348,17.77,76.05,0
2025,349,17.68,77.54,0
2025,350,19.19,88.93,1.1
2025,351,20.62,85.05,0.63
2025,352,17.86,80.7,0.07
2025,353,18.31,76.53,0
2025,354,18.39,77.29,0
2025,355,18.52,76.62,0
2025,356,18.43,79.94,0.1
2025,357,18.76,80.99,0.09
2025,358,19.01,78.97,0
2025,359,18.97,74.86,0.01
2025,360,19.99,79.08,0.2
